 time Re_C11(t) Re_C12(t) Re_C21(t) Re_C22(t) Im_C11(t) Im_C12(t) Im_C21(t) Im_C22(t) 
        0.00000000000E+000        0.64627904581E-018        0.57860121188E-018        0.57860121188E-018        0.29879681652E-018        0.00000000000E+000        0.00000000000E+000        0.00000000000E+000        0.00000000000E+000
        0.10333084596E+000        0.23382312823E-002        0.54616993557E-004        0.54616993557E-004        0.31310298411E-004       -0.66780560530E-019       -0.59787352697E-019       -0.59787352697E-019       -0.30874927821E-019
        0.20666169192E+000        0.46627550889E-002        0.10991641843E-003        0.10991641843E-003        0.62446002062E-004       -0.24160793249E-003       -0.56435387688E-005       -0.56435387688E-005       -0.32352729698E-005
        0.30999253788E+000        0.69600433947E-002        0.16656566152E-003        0.16656566152E-003        0.93234620748E-004       -0.72338657095E-003       -0.17000640184E-004       -0.17000640184E-004       -0.96874990201E-005
        0.41332338384E+000        0.92169241541E-002        0.22520229687E-003        0.22520229687E-003        0.12350783930E-003       -0.14424804142E-002       -0.34209777384E-004       -0.34209777384E-004       -0.19320261053E-004
        0.51665422980E+000        0.11420752035E-001        0.28641986434E-003        0.28641986434E-003        0.15310352049E-003       -0.23946532769E-002       -0.57474752998E-004       -0.57474752998E-004       -0.32079486467E-004
        0.61998507576E+000        0.13559570589E-001        0.35075445628E-003        0.35075445628E-003        0.18186760808E-003       -0.35743438975E-002       -0.87060092604E-004       -0.87060092604E-004       -0.47894100648E-004
        0.72331592172E+000        0.15622263229E-001        0.41867235854E-003        0.41867235854E-003        0.20965589947E-003       -0.49747386467E-002       -0.12328503761E-003       -0.12328503761E-003       -0.66676881543E-004
        0.82664676768E+000        0.17598690589E-001        0.49055897289E-003        0.49055897289E-003        0.23633565964E-003       -0.65878601371E-002       -0.16651624995E-003       -0.16651624995E-003       -0.88325501341E-004
        0.92997761364E+000        0.19479812065E-001        0.56670922446E-003        0.56670922446E-003        0.26178705094E-003       -0.84046702773E-002       -0.21715936523E-003       -0.21715936523E-003       -0.11272373829E-003
        0.10333084596E+001        0.21257789610E-001        0.64731963083E-003        0.64731963083E-003        0.28590435642E-003       -0.10415186078E-001       -0.27564955222E-003       -0.27564955222E-003       -0.13974283891E-003
        0.11366393056E+001        0.22926072175E-001        0.73248217919E-003        0.73248217919E-003        0.30859697807E-003       -0.12608606316E-001       -0.34244125564E-003       -0.34244125564E-003       -0.16924300864E-003
        0.12399701515E+001        0.24479459493E-001        0.82218012473E-003        0.82218012473E-003        0.32979019516E-003       -0.14973446988E-001       -0.41799731406E-003       -0.41799731406E-003       -0.20107500670E-003
        0.13433009975E+001        0.25914144281E-001        0.91628578887E-003        0.91628578887E-003        0.34942567221E-003       -0.17497683354E-001       -0.50277765697E-003       -0.50277765697E-003       -0.23508181979E-003
        0.14466318434E+001        0.27227732302E-001        0.10145603992E-002        0.10145603992E-002        0.36746171020E-003       -0.20168896273E-001       -0.59722779239E-003       -0.59722779239E-003       -0.27110038787E-003
        0.15499626894E+001        0.28419240080E-001        0.11166559758E-002        0.11166559758E-002        0.38387323947E-003       -0.22974420480E-001       -0.70176730118E-003       -0.70176730118E-003       -0.30896335464E-003
        0.16532935354E+001        0.29489070485E-001        0.12221192323E-002        0.12221192323E-002        0.39865155674E-003       -0.25901492436E-001       -0.81677855347E-003       -0.81677855347E-003       -0.34850081555E-003
        0.17566243813E+001        0.30438966740E-001        0.13303974213E-002        0.13303974213E-002        0.41180381354E-003       -0.28937395399E-001       -0.94259585925E-003       -0.94259585925E-003       -0.38954203598E-003
        0.18599552273E+001        0.31271945788E-001        0.14408460215E-002        0.14408460215E-002        0.42335226725E-003       -0.32069599460E-001       -0.10794952567E-002       -0.10794952567E-002       -0.43191711357E-003
        0.19632860732E+001        0.31992212300E-001        0.15527381281E-002        0.15527381281E-002        0.43333331021E-003       -0.35285894357E-001       -0.12276851307E-002       -0.12276851307E-002       -0.47545855950E-003
        0.20666169192E+001        0.32605054931E-001        0.16652753777E-002        0.16652753777E-002        0.44179629604E-003       -0.38574513044E-001       -0.13872978382E-002       -0.13872978382E-002       -0.52000277571E-003
        0.21699477652E+001        0.33116726706E-001        0.17776002125E-002        0.17776002125E-002        0.44880218556E-003       -0.41924244169E-001       -0.15583824990E-002       -0.15583824990E-002       -0.56539140660E-003
        0.22732786111E+001        0.33534311709E-001        0.18888092627E-002        0.18888092627E-002        0.45442203810E-003       -0.45324531808E-001       -0.17408990890E-002       -0.17408990890E-002       -0.61147254674E-003
        0.23766094571E+001        0.33865580454E-001        0.19979676073E-002        0.19979676073E-002        0.45873537590E-003       -0.48765561064E-001       -0.19347139491E-002       -0.19347139491E-002       -0.65810178848E-003
        0.24799403030E+001        0.34118836475E-001        0.21041236572E-002        0.21041236572E-002        0.46182845195E-003       -0.52238328356E-001       -0.21395967966E-002       -0.21395967966E-002       -0.70514309673E-003
        0.25832711490E+001        0.34302756852E-001        0.22063243935E-002        0.22063243935E-002        0.46379245253E-003       -0.55734695551E-001       -0.23552192999E-002       -0.23552192999E-002       -0.75246950103E-003
        0.26866019950E+001        0.34426229431E-001        0.23036306879E-002        0.23036306879E-002        0.46472166694E-003       -0.59247427334E-001       -0.25811552459E-002       -0.25811552459E-002       -0.79996359883E-003
        0.27899328409E+001        0.34498189556E-001        0.23951324327E-002        0.23951324327E-002        0.46471165713E-003       -0.62770211535E-001       -0.28168823043E-002       -0.28168823043E-002       -0.84751786699E-003
        0.28932636869E+001        0.34527459126E-001        0.24799632070E-002        0.24799632070E-002        0.46385745963E-003       -0.66297662429E-001       -0.30617853600E-002       -0.30617853600E-002       -0.89503478227E-003
        0.29965945328E+001        0.34522590690E-001        0.25573142220E-002        0.25573142220E-002        0.46225185124E-003       -0.69825307303E-001       -0.33151613603E-002       -0.33151613603E-002       -0.94242675466E-003
        0.30999253788E+001        0.34491719242E-001        0.26264472937E-002        0.26264472937E-002        0.45998370879E-003       -0.73349556904E-001       -0.35762255924E-002       -0.35762255924E-002       -0.98961588125E-003
        0.32032562247E+001        0.34442424172E-001        0.26867066167E-002        0.26867066167E-002        0.45713649097E-003       -0.76867660623E-001       -0.38441192838E-002       -0.38441192838E-002       -0.10365335308E-002
        0.33065870707E+001        0.34381603657E-001        0.27375291295E-002        0.27375291295E-002        0.45378686812E-003       -0.80377647552E-001       -0.41179183945E-002       -0.41179183945E-002       -0.10831197728E-002
        0.34099179167E+001        0.34315363540E-001        0.27784532916E-002        0.27784532916E-002        0.45000352263E-003       -0.83878254776E-001       -0.43966434459E-002       -0.43966434459E-002       -0.11293226668E-002
        0.35132487626E+001        0.34248922468E-001        0.28091261195E-002        0.28091261195E-002        0.44584613968E-003       -0.87368844464E-001       -0.46792702173E-002       -0.46792702173E-002       -0.11750974305E-002
        0.36165796086E+001        0.34186534763E-001        0.28293083611E-002        0.28293083611E-002        0.44136460397E-003       -0.90849311513E-001       -0.49647411224E-002       -0.49647411224E-002       -0.12204055069E-002
        0.37199104545E+001        0.34131432180E-001        0.28388777248E-002        0.28388777248E-002        0.43659841475E-003       -0.94319983642E-001       -0.52519770690E-002       -0.52519770690E-002       -0.12652135532E-002
        0.38232413005E+001        0.34085785359E-001        0.28378301095E-002        0.28378301095E-002        0.43157632677E-003       -0.97781515920E-001       -0.55398895957E-002       -0.55398895957E-002       -0.13094923721E-002
        0.39265721465E+001        0.34050685424E-001        0.28262788246E-002        0.28262788246E-002        0.42631622099E-003       -0.10123478183E+000       -0.58273930775E-002       -0.58273930775E-002       -0.13532158128E-002
        0.40299029924E+001        0.34026145832E-001        0.28044518215E-002        0.28044518215E-002        0.42082520457E-003       -0.10468076294E+000       -0.61134167895E-002       -0.61134167895E-002       -0.13963596622E-002
        0.41332338384E+001        0.34011124216E-001        0.27726869945E-002        0.27726869945E-002        0.41509993517E-003       -0.10812043933E+000       -0.63969166243E-002       -0.63969166243E-002       -0.14389005521E-002
        0.42365646843E+001        0.34003563587E-001        0.27314256460E-002        0.27314256460E-002        0.40912716090E-003       -0.11155468281E+000       -0.66768862650E-002       -0.66768862650E-002       -0.14808149044E-002
        0.43398955303E+001        0.34000451978E-001        0.26812042425E-002        0.26812042425E-002        0.40288446303E-003       -0.11498415489E+000       -0.69523676263E-002       -0.69523676263E-002       -0.15220779377E-002
        0.44432263763E+001        0.33997899240E-001        0.26226446176E-002        0.26226446176E-002        0.39634118496E-003       -0.11840921143E+000       -0.72224603931E-002       -0.72224603931E-002       -0.15626627531E-002
        0.45465572222E+001        0.33991229436E-001        0.25564428087E-002        0.25564428087E-002        0.38945952788E-003       -0.12182981569E+000       -0.74863305009E-002       -0.74863305009E-002       -0.16025395212E-002
        0.46498880682E+001        0.33975087021E-001        0.24833567351E-002        0.24833567351E-002        0.38219579015E-003       -0.12524546119E+000       -0.77432174252E-002       -0.77432174252E-002       -0.16416747837E-002
        0.47532189141E+001        0.33943554742E-001        0.24041929479E-002        0.24041929479E-002        0.37450172536E-003       -0.12865510599E+000       -0.79924401683E-002       -0.79924401683E-002       -0.16800308853E-002
        0.48565497601E+001        0.33890281031E-001        0.23197926970E-002        0.23197926970E-002        0.36632599166E-003       -0.13205711925E+000       -0.82334018575E-002       -0.82334018575E-002       -0.17175655467E-002
        0.49598806061E+001        0.33808614497E-001        0.22310175718E-002        0.22310175718E-002        0.35761566371E-003       -0.13544924110E+000       -0.84655928942E-002       -0.84655928942E-002       -0.17542315867E-002
        0.50632114520E+001        0.33691743029E-001        0.21387349790E-002        0.21387349790E-002        0.34831777728E-003       -0.13882855641E+000       -0.86885926224E-002       -0.86885926224E-002       -0.17899767986E-002
        0.51665422980E+001        0.33532834953E-001        0.20438037231E-002        0.20438037231E-002        0.33838087656E-003       -0.14219148284E+000       -0.89020695085E-002       -0.89020695085E-002       -0.18247439835E-002
        0.52698731439E+001        0.33325179697E-001        0.19470599518E-002        0.19470599518E-002        0.32775653394E-003       -0.14553377321E+000       -0.91057798573E-002       -0.91057798573E-002       -0.18584711392E-002
        0.53732039899E+001        0.33062325409E-001        0.18493037192E-002        0.18493037192E-002        0.31640081298E-003       -0.14885053210E+000       -0.92995651105E-002       -0.92995651105E-002       -0.18910918003E-002
        0.54765348359E+001        0.32738211113E-001        0.17512864096E-002        0.17512864096E-002        0.30427564646E-003       -0.15213624616E+000       -0.94833478045E-002       -0.94833478045E-002       -0.19225355232E-002
        0.55798656818E+001        0.32347291047E-001        0.16536992460E-002        0.16536992460E-002        0.29135010311E-003       -0.15538482760E+000       -0.96571262837E-002       -0.96571262837E-002       -0.19527285053E-002
        0.56831965278E+001        0.31884649035E-001        0.15571630845E-002        0.15571630845E-002        0.27760151896E-003       -0.15858966981E+000       -0.98209682922E-002       -0.98209682922E-002       -0.19815943261E-002
        0.57865273737E+001        0.31346100936E-001        0.14622196761E-002        0.14622196761E-002        0.26301647175E-003       -0.16174371398E+000       -0.99750035817E-002       -0.99750035817E-002       -0.20090547962E-002
        0.58898582197E+001        0.30728283429E-001        0.13693245430E-002        0.13693245430E-002        0.24759158010E-003       -0.16483952561E+000       -0.10119415695E-001       -0.10119415695E-001       -0.20350308962E-002
        0.59931890657E+001        0.30028727685E-001        0.12788415901E-002        0.12788415901E-002        0.23133411231E-003       -0.16786937921E+000       -0.10254433094E-001       -0.10254433094E-001       -0.20594437874E-002
        0.60965199116E+001        0.29245916745E-001        0.11910395379E-002        0.11910395379E-002        0.21426239353E-003       -0.17082534972E+000       -0.10380319814E-001       -0.10380319814E-001       -0.20822158749E-002
        0.61998507576E+001        0.28379325735E-001        0.11060902291E-002        0.11060902291E-002        0.19640600367E-003       -0.17369940886E+000       -0.10497365831E-001       -0.10497365831E-001       -0.21032719012E-002
        0.63031816035E+001        0.27429444381E-001        0.10240688241E-002        0.10240688241E-002        0.17780576250E-003       -0.17648352472E+000       -0.10605877336E-001       -0.10605877336E-001       -0.21225400499E-002
        0.64065124495E+001        0.26397781584E-001        0.94495586877E-003        0.94495586877E-003        0.15851350243E-003       -0.17916976272E+000       -0.10706167103E-001       -0.10706167103E-001       -0.21399530383E-002
        0.65098432955E+001        0.25286852182E-001        0.86864117899E-003        0.86864117899E-003        0.13859163327E-003       -0.18175038611E+000       -0.10798545139E-001       -0.10798545139E-001       -0.21554491757E-002
        0.66131741414E+001        0.24100146312E-001        0.79492945543E-003        0.79492945543E-003        0.11811250745E-003       -0.18421795431E+000       -0.10883309796E-001       -0.10883309796E-001       -0.21689733702E-002
        0.67165049874E+001        0.22842082124E-001        0.72354750816E-003        0.72354750816E-003        0.97157597478E-004       -0.18656541725E+000       -0.10960739510E-001       -0.10960739510E-001       -0.21804780611E-002
        0.68198358333E+001        0.21517942867E-001        0.65415294212E-003        0.65415294212E-003        0.75816501311E-004       -0.18878620422E+000       -0.11031085325E-001       -0.11031085325E-001       -0.21899240620E-002
        0.69231666793E+001        0.20133799680E-001        0.58634412683E-003        0.58634412683E-003        0.54185794172E-004       -0.19087430562E+000       -0.11094564333E-001       -0.11094564333E-001       -0.21972812960E-002
        0.70264975253E+001        0.18696421615E-001        0.51967125059E-003        0.51967125059E-003        0.32367748265E-004       -0.19282434631E+000       -0.11151354155E-001       -0.11151354155E-001       -0.22025294114E-002
        0.71298283712E+001        0.17213174684E-001        0.45364823978E-003        0.45364823978E-003        0.10468944228E-004       -0.19463164941E+000       -0.11201588552E-001       -0.11201588552E-001       -0.22056582632E-002
        0.72331592172E+001        0.15691911868E-001        0.38776530836E-003        0.38776530836E-003       -0.11401199940E-004       -0.19629228953E+000       -0.11245354242E-001       -0.11245354242E-001       -0.22066682540E-002
        0.73364900631E+001        0.14140856186E-001        0.32150189147E-003        0.32150189147E-003       -0.33131955282E-004       -0.19780313459E+000       -0.11282688973E-001       -0.11282688973E-001       -0.22055705263E-002
        0.74398209091E+001        0.12568479026E-001        0.25433971115E-003        0.25433971115E-003       -0.54612835494E-004       -0.19916187589E+000       -0.11313580871E-001       -0.11313580871E-001       -0.22023870022E-002
        0.75431517551E+001        0.10983375981E-001        0.18577572015E-003        0.18577572015E-003       -0.75735149245E-004       -0.20036704575E+000       -0.11337969069E-001       -0.11337969069E-001       -0.21971502712E-002
        0.76464826010E+001        0.93941424772E-002        0.11533467330E-003        0.11533467330E-003       -0.96393522823E-004       -0.20141802306E+000       -0.11355745577E-001       -0.11355745577E-001       -0.21899033261E-002
        0.77498134470E+001        0.78092514467E-002        0.42581083791E-004        0.42581083791E-004       -0.11648736543E-003       -0.20231502638E+000       -0.11366758353E-001       -0.11366758353E-001       -0.21806991533E-002
        0.78531442929E+001        0.62369352213E-002       -0.32869665895E-004       -0.32869665895E-004       -0.13592225057E-003       -0.20305909539E+000       -0.11370815498E-001       -0.11370815498E-001       -0.21696001845E-002
        0.79564751389E+001        0.46850737367E-002       -0.11134127171E-003       -0.11134127171E-003       -0.15461118879E-003       -0.20365206088E+000       -0.11367690473E-001       -0.11367690473E-001       -0.21566776191E-002
        0.80598059849E+001        0.31610909808E-002       -0.19308770704E-003       -0.19308770704E-003       -0.17247576899E-003       -0.20409650427E+000       -0.11357128229E-001       -0.11357128229E-001       -0.21420106307E-002
        0.81631368308E+001        0.16718614449E-002       -0.27828584113E-003       -0.27828584113E-003       -0.18944714817E-003       -0.20439570755E+000       -0.11338852110E-001       -0.11338852110E-001       -0.21256854709E-002
        0.82664676768E+001        0.22362812923E-003       -0.36702961770E-003       -0.36702961770E-003       -0.20546687251E-003       -0.20455359457E+000       -0.11312571390E-001       -0.11312571390E-001       -0.21077944871E-002
        0.83697985227E+001       -0.11780665853E-002       -0.45932590416E-003       -0.45932590416E-003       -0.22048751564E-003       -0.20457466517E+000       -0.11277989276E-001       -0.11277989276E-001       -0.20884350719E-002
        0.84731293687E+001       -0.25284361417E-002       -0.55509208991E-003       -0.55509208991E-003       -0.23447312364E-003       -0.20446392326E+000       -0.11234811217E-001       -0.11234811217E-001       -0.20677085621E-002
        0.85764602146E+001       -0.38234903094E-002       -0.65415547865E-003       -0.65415547865E-003       -0.24739946006E-003       -0.20422680042E+000       -0.11182753343E-001       -0.11182753343E-001       -0.20457191072E-002
