1:Freq.	2:E.cond.	3:T.cond	4:T.powr1:Freq.	2:L11_R	3:L12_R	4:L21_R	5:L22_R	6:L11_I	7:L12_I	8:L21_I	9:L22_I
0.003674996566681991	0.013702236661450803	0.0001835144600691969	0.04467238087605544	
0.007349992505045451	0.013871686904209563	0.00017966024777034794	0.039592748468336235	
0.011024988443408911	0.014167974826158922	0.00017294944700827885	0.03147704604139596	
0.014699984381772372	0.014611588961942708	0.0001630496376205346	0.020846628055195854	
0.01837498032013583	0.015230587550915263	0.00014967934291554812	0.008408372420381158	
0.022049976258499294	0.016060010660242843	0.0001327559588266514	-0.0049947899010111315	
0.025724972196862747	0.017141173233867033	0.00011252544254313831	-0.0184670594038804	
0.02939996813522621	0.018520871084808543	8.96304437957613e-05	-0.031166434116293332	
0.033074964073589674	0.02025053325378901	6.508702109920125e-05	-0.042410108954592955	
0.03674996001195313	0.022385353194413937	4.017061522423086e-05	-0.05174936234018707	
0.04042495595031659	0.024983427743414634	1.6244718006715785e-05	-0.05899447113746281	
0.04409995188868005	0.028104927011422497	-5.4175093425264306e-06	-0.06418891564101799	
0.04777494782704351	0.031811310599641825	-2.3774835829227607e-05	-0.06754882803627613	
0.051449943765406965	0.03616459648325315	-3.8100766719206805e-05	-0.06939032976744292	
0.05512493970377043	0.04122667919659223	-4.800837608482164e-05	-0.07006382551391871	
0.05879993564213389	0.047058684376188355	-5.343187427209656e-05	-0.0699056287500218	
0.062474931580497356	0.05372033805730712	-5.458297011635835e-05	-0.06920897513164527	
0.06614992751886081	0.061269322138746085	-5.189667463070079e-05	-0.06821132444196562	
0.06982492345722427	0.06976058280589356	-4.597561425148116e-05	-0.06709297544608611	
0.07349991939558773	0.07924555697619791	-3.753711675331243e-05	-0.06598227059927275	
0.0771749153339512	0.08977128337043824	-2.736433459533718e-05	-0.06496382649293374	
0.08084991127231465	0.1013793697753714	-1.6261343832742177e-05	-0.06408749449775851	
0.08452490721067811	0.11410479637788187	-5.011943845182703e-06	-0.06337677618881132	
0.08819990314904158	0.1279745464132498	5.657772233106527e-06	-0.06283611108111212	
0.09187489908740502	0.1430060692510298	1.5112507947745257e-05	-0.062456868464615525	
0.0955498950257685	0.15920559671045692	2.2835536236856298e-05	-0.06222209323303134	
0.09922489096413195	0.17656634995789108	2.844997327114116e-05	-0.06211015193137533	
0.10289988690249542	0.19506669078045918	3.1732413868074035e-05	-0.062097453681486135	
0.10657488284085888	0.21466828628321674	3.261805875898689e-05	-0.06216041549319568	
0.11024987877922234	0.23531436905697908	3.119691394894017e-05	-0.06227682248356982	
0.1139248747175858	0.2569281846154254	2.770120644452196e-05	-0.0624267109777417	
0.11759987065594926	0.2794117235409222	2.2484765733233332e-05	-0.06259288101729721	
0.12127486659431273	0.3026448366369047	1.5995695729332884e-05	-0.06276112609970248	
0.12494986253267619	0.32648482702710113	8.744146100435562e-06	-0.0629202522087953	
0.12862485847103966	0.35076660340913474	1.2673384100064103e-06	-0.06306194499493858	
0.13229985440940312	0.37530346369786555	-5.905817410476187e-06	-0.06318053282194981	
0.13597485034776657	0.3998885585176848	-1.228817743502713e-05	-0.0632726838807903	
0.13964984628613003	0.42429706014528473	-1.7463716856255758e-05	-0.0633370673635023	
0.1433248422244935	0.44828903554533966	-2.1110925521489186e-05	-0.06337400159294906	
0.14699983816285694	0.47161299327398687	-2.3018822964124123e-05	-0.06338510589027643	
0.1506748341012204	0.49401004459655107	-2.3094682966698877e-05	-0.0633729677499025	
0.15434983003958386	0.5152185906103639	-2.1363109444272725e-05	-0.06334083251154717	
0.15802482597794734	0.5349794209255415	-1.7956655715244715e-05	-0.06329231909527931	
0.1616998219163108	0.5530410869143694	-1.3098690977240786e-05	-0.06323116240934343	
0.16537481785467426	0.5691653949290477	-7.079659200425791e-06	-0.06316098064540922	
0.1690498137930377	0.5831328532311796	-2.2822151547488566e-07	-0.06308506372027348	
0.17272480973140117	0.5947479014253662	7.120994109409397e-06	-0.06300617747290779	
0.17639980566976465	0.6038437533759917	1.466120212903743e-05	-0.06292637673719838	
0.18007480160812808	0.6102866939945606	2.2147008049408687e-05	-0.06284681893139545	
0.18374979754649154	0.6139796866385523	2.9426008714944503e-05	-0.06276756817404594	
0.187424793484855	0.6148651705328503	3.646699197760722e-05	-0.06268737798152667	
0.19109978942321848	0.6129269556565845	4.338360141690829e-05	-0.06260343814023203	
0.19477478536158194	0.608191154695623	5.045270492606417e-05	-0.06251106817951856	
0.19844978129994537	0.6007261264865383	5.812710150368466e-05	-0.0624033357916641	
0.20212477723830885	0.5906414412661278	6.70425808384919e-05	-0.06227057334556616	
0.2057997731766723	0.5780859133191365	7.801967323594387e-05	-0.06209975914478582	
0.2094747691150358	0.563244779632962	9.2060646849214e-05	-0.061873722200177096	
0.21314976505339922	0.5463361323744224	0.00011034237413202025	-0.061570120136787074	
0.2168247609917627	0.5276067370394132	0.00013420554340911464	-0.06116012995152626	
0.22049975693012613	0.5073273858891775	0.00016514027101810928	-0.06060678195004604	
0.22417475286848962	0.485787946991977	0.00020476740341462998	-0.05986286090886491	
0.22784974880685308	0.463292272410542	0.0002548136097185306	-0.05886830015076267	
0.23152474474521656	0.44015312477104235	0.00031707667897134216	-0.057547012188083314	
0.23519974068358	0.4166872699615645	0.00039337520589425196	-0.05580314772217917	
0.23887473662194345	0.39321086574883674	0.00048547411063072887	-0.0535168745732726	
0.24254973256030693	0.37003525271420523	0.0005949744231100887	-0.050539950457054984	
0.24622472849867036	0.34746322641304983	0.0007231530952462428	-0.0466916680141471	
0.24989972443703384	0.3257858395819583	0.000870737608410833	-0.04175621767640547	
0.2535747203753973	0.3052797522065339	0.0010376032317209601	-0.03548316246412574	
0.25724971631376076	0.2862051170086773	0.0012223917437025496	-0.027593496166794802	
0.2609247122521242	0.268803960051808	0.0014220740935704103	-0.017794455090639896	
0.26459970819048767	0.25329899219169855	0.001631519851980471	-0.005806406939829546	
0.2682747041288511	0.23989276829476658	0.0018431919041303475	0.00859602766653782	
0.27194970006721464	0.22876709849101032	0.0020471411576195816	0.025529864628118973	
0.27562469600557804	0.22008260986911268	0.0022314988575252927	0.04494394601985956	
0.2792996919439415	0.21397835822302777	0.00238360407394742	0.06656823855234839	
0.28297468788230495	0.2105713975967995	0.002491725299100958	0.08989239740728938	
0.2866496838206684	0.20995622993555044	0.0025470659277228706	0.11419165535249458	
0.2903246797590319	0.2122040772642543	0.0025455071860664173	0.13860531098728493	
0.2939996756973953	0.21736194329752365	0.0024885090949143683	0.16225300680797708	
0.29767467163575884	0.22545145879818823	0.002382844322200564	0.18435707621528213	
0.3013496675741223	0.23646753374083887	0.0022392737000687794	0.2043362588518569	
0.30502466351248575	0.25037686770134265	0.002070641730548108	0.22184910171027836	
0.3086996594508492	0.2671163961896379	0.0018899832553979671	0.2367858730116976	
0.31237465538921266	0.2865917732690269	0.00170908330873923	0.24922408739256563	
0.3160496513275761	0.30867600833816927	0.0015376649390687804	0.2593684784796527	
0.3197246472659396	0.33320838622557686	0.0013831504718436174	0.26749280045881796	
0.32339964320430303	0.3599938039138728	0.001250824083649609	0.27389337853474	
0.3270746391426665	0.3888026537923111	0.0011442081756781774	0.2788573919187899	
0.33074963508102995	0.419371372245618	0.0010655070680366389	0.28264448542420295	
0.3344246310193934	0.45140375394173077	0.0010160270586155834	0.2854784584444909	
0.3380996269577569	0.484573107085928	0.0009965286637152945	0.28754560807183976	
0.3417746228961203	0.518525294224919	0.0010074978437174316	0.28899692046734343	
0.34544961883448383	0.5528826682761855	0.0010493398680576408	0.2899521221207639	
0.34912461477284723	0.587248875926074	0.0011225065983215669	0.29050432999031917	
0.35279961071121074	0.6212144621428372	0.0012275695107705695	0.29072458255288053	
0.3564746066495742	0.6543631721158045	0.0013652496658053245	0.29066589647152025	
0.3601496025879376	0.6862788122662224	0.0015364138034610901	0.29036671521686247	
0.3638245985263011	0.7165525017757833	0.0017420436958799142	0.2898537399292711	
0.36749959446466457	0.7447901218483313	0.0019831842009913553	0.2891441945886405	
0.371174590403028	0.7706197528937838	0.002260874242460552	0.288247602496803	
0.3748495863413915	0.7936988809081572	0.002576064165870898	0.287167155760715	
0.37852458227975494	0.8137211540553696	0.0029295225160496994	0.28590075408026516	
0.3821995782181184	0.8304224789741476	0.003321735159184075	0.2844417796032408	
0.38587457415648185	0.84358626337355	0.003752799753748856	0.2827796641360731	
0.3895495700948453	0.8530476363919032	0.004222318783529167	0.2809002952126947	
0.39322456603320877	0.8586965099695401	0.004729294641449274	0.2787862991323566	
0.39689956197157217	0.8604793818133052	0.005272030540837721	0.27641723229551524	
0.4005745579099356	0.8583998218560909	0.005848041285282102	0.2737697069636002	
0.40424955384829914	0.8525176277163267	0.006453978110291526	0.27081747380315785	
0.4079245497866626	0.8429466787331905	0.007085571886690541	0.267531481069828	
0.411599545725026	0.8298515608848066	0.00773759891985744	0.26387992886132405	
0.4152745416633895	0.8134430745618764	0.008403873368868355	0.2598283363469002	
0.41894953760175296	0.7939727722000298	0.009077269928690193	0.25533964009539917	
0.4226245335401165	0.7717267018302638	0.009749779854871809	0.25037434240346096	
0.4262995294784799	0.7470185546312864	0.010412602656088387	0.24489072968213177	
0.42997452541684333	0.7201824288288633	0.011056274831695804	0.2388451822746726	
0.43364952135520685	0.6915654284041495	0.011670835889261325	0.2321925982845977	
0.43732451729357025	0.661520313022844	0.012246030545216282	0.2248869547644341	
0.4409995132319337	0.6303984057066556	0.012771544500251015	0.2168820295581509	
0.4446745091702972	0.5985429476892956	0.013237269507873843	0.2081323057440481	
0.4483495051086607	0.5662830665671562	0.013633591649878114	0.19859407748365918	
0.4520245010470241	0.533928495439441	0.013951694844298566	0.18822677063381088	
0.45569949698538753	0.5017651485756967	0.014183869712482285	0.17699448327636577	
0.45937449292375104	0.4700516246982083	0.014323816126800257	0.16486774008583502	
0.4630494888621145	0.43901667370693004	0.014366926191778878	0.1518254402184801	
0.4667244848004779	0.40885762805829107	0.014310533261343145	0.13785696166466063	
0.4703994807388414	0.379739767393585	0.014154112080251061	0.12296436688356222	
0.47407447667720487	0.3517965556024985	0.013899415493929243	0.10716463690891254	
0.47774947261556827	0.3251306643079441	0.013550534621964906	0.09049184662417757	
0.4814244685539318	0.2998156765397338	0.013113872106079697	0.0729991858510905	
0.48509946449229524	0.27589834963863274	0.01259802208463146	0.05476073287800034	
0.48877446043065875	0.2534013074430901	0.012013555809463873	0.03587290240411342	
0.49244945636902215	0.23232602853833426	0.01137271799622798	0.016455520856817042	
0.4961244523073856	0.21265599952307274	0.0106890455525524	-0.0033474710633151473	
0.4997994482457491	0.1943599093827593	0.009976926533796924	-0.02336762851556485	
0.5034744441841126	0.1773947724746654	0.009251122199223692	-0.04341179774022213	
0.507149440122476	0.16170888251034832	0.008526278071879235	-0.06326190389043437	
0.5108244360608395	0.14724451735129818	0.007816450317296653	-0.08267449017370299	
0.514499431999203	0.1339403334524668	0.007134671261677091	-0.10137975072868172	
0.5181744279375663	0.12173340843620187	0.006492572629105014	-0.11907983471563661	
0.5218494238759298	0.11056090964231383	0.005900077730019211	-0.13544630579133776	
0.5255244198142933	0.10036138475124107	0.005365165449548756	-0.15011684045191465	
0.5291994157526568	0.0910756870083794	0.004893700843141885	-0.16269156057096856	
0.5328744116910202	0.08264756162447381	0.0044893209783618	-0.17272983433773867	
0.5365494076293836	0.07502393118547541	0.00415336188437337	-0.1797489449973269	
0.5402244035677471	0.0681549261384136	0.003884814423941091	-0.18322668357911023	
0.5438993995061107	0.06199371155563877	0.0036803045238424825	-0.18261057132426195	
0.5475743954444741	0.05649616350131265	0.003534106639349368	-0.17733685866956408	
0.5512493913828376	0.05162044765212681	0.0034382172967388014	-0.1668623468426618	
0.554924387321201	0.047326549694803904	0.003382534416251328	-0.15071098405732766	
0.5585993832595644	0.043575801859913714	0.0033552010872181038	-0.12853464911445175	
0.5622743791979279	0.04033044323761259	0.003343169867778254	-0.1001833705241464	
0.5659493751362914	0.03755324376755029	0.0033330155417691165	-0.06577493482055928	
0.5696243710746549	0.0352072135136702	0.0033119661132466117	-0.025748931659585916	
0.5732993670130183	0.03325541050952272	0.003269042189579439	0.01911178999975699	
0.5769743629513817	0.031660852526083354	0.0031961194859239693	0.06770606032899006	
0.5806493588897452	0.03038653093932353	0.00308869479558204	0.11869015881791457	
0.5843243548281087	0.029395518745758565	0.0029461719963801572	0.17059548228628785	
0.5879993507664721	0.028651159889863862	0.0027715920522221344	0.22196675007299255	
0.5916743467048355	0.028117323536832644	0.0025708729918338573	0.2714933157607096	
0.595349342643199	0.027758704770481576	0.0023517453845729817	0.3181091395943974	
0.5990243385815625	0.027541152363437876	0.002122620219394565	0.3610473490877044	
0.602699334519926	0.027432004632277837	0.0018915992998888083	0.39984822915107815	
0.6063743304582895	0.027400415778423993	0.0016657586352157286	0.4343298876327818	
0.6100493263966529	0.027417657313844226	0.0014507430991862772	0.46453597476478303	
0.6137243223350163	0.02745738194595712	0.0012506383169731243	0.49067478700582684	
0.6173993182733798	0.027495840411253407	0.0010680470145046428	0.5130607445167166	
0.6210743142117433	0.02751204497482181	0.0009042890322575064	0.5320648061973376	
0.6247493101501068	0.02748787644882951	0.0007596558134978089	0.5480764504024851	
0.6284243060884702	0.02740813445527177	0.0006336698996155077	0.5614771037290196	
0.6320993020268336	0.027260533134603877	0.0005253197185257391	0.5726233866729432	
0.6357742979651971	0.027035646492870807	0.00043325570383834856	0.5818379783248685	
0.6394492939035605	0.026726809039827756	0.0003559444940388086	0.5894059251942244	
0.643124289841924	0.026329978294622698	0.00029178421624478646	0.5955745342118907	
0.6467992857802876	0.02584356615553767	0.0002391868241553575	0.600555397915403	
0.650474281718651	0.025268246107304503	0.00019663429616268176	0.6045274898679172	
0.6541492776570144	0.024606742856486945	0.0001627151248809754	0.6076405914180705	
0.6578242735953779	0.023863610338174326	0.00013614657612517016	0.6100185544123634	
0.6614992695337414	0.023045003225944764	0.00011578705619097811	0.6117620739619525	
0.6651742654721048	0.022158446198247438	0.00010064182061673261	0.6129507531358085	
0.6688492614104682	0.02121260435396732	8.986429175671611e-05	0.6136443005477792	
0.6725242573488317	0.02021705739793709	8.275446387303601e-05	0.6138827234498185	
0.6761992532871952	0.01918207958385868	7.87552606762741e-05	0.6136853719822475	
0.6798742492255586	0.018118426936362116	7.74472467406296e-05	0.6130486617599541	
0.6835492451639221	0.017037132983231375	7.85417441115252e-05	0.6119422588376049	
0.6872242411022855	0.01594931410097238	8.18721248414471e-05	0.6103034623643127	
0.690899237040649	0.01486598558321586	8.738279139003048e-05	0.608029481101805	
0.6945742329790124	0.013797889641012185	9.511507129023534e-05	0.6049672978899879	
0.698249228917376	0.012755336688681243	0.00010518889671924566	0.6009009001076658	
0.7019242248557395	0.011748061408200155	0.0001177786878663629	0.59553590778038	
0.7055992207941029	0.010785095171752886	0.00013308132983281284	0.588482187689617	
0.7092742167324663	0.009874656396044262	0.0001512736394579128	0.5792360954291347	
0.7129492126708298	0.009024060274336075	0.0001724565527408895	0.5671657776525493	
0.7166242086091933	0.008239649067486813	0.00019658401036527738	0.5515056970730274	
0.7202992045475567	0.007526743732943953	0.00022337715304878033	0.5313701547074605	
0.7239742004859201	0.006889617144788429	0.00025223024856980053	0.5057993056591314	
0.7276491964242836	0.006331488536156921	0.0002821247880493258	0.47385285065787064	
0.7313241923626471	0.005854538116328257	0.00031158169331524567	0.4347622341952154	
0.7349991883010105	0.005459940124893672	0.00033869370117628483	0.38813673652125874	
0.738674184239374	0.0051479119350689995	0.0003612799757851775	0.33418992281620696	
0.7423491801777374	0.004917776257399629	0.00037717919774789933	0.2739176208503779	
0.7460241761161008	0.00476803306947419	0.00038464096908665137	0.2091384146927057	
0.7496991720544643	0.004696437644210291	0.00038270819683426633	0.14233042692714495	
0.7533741679928279	0.004700080994837988	0.0003714503972083925	0.07627262165437072	
0.7570491639311914	0.004775469211262746	0.00035194868842501734	0.013591394020307807	
0.7607241598695548	0.004918598527491126	0.0003260367377666038	-0.04363761592051228	
0.7643991558079182	0.005125023515632013	0.0002959039473066361	-0.09411337754495523	
0.7680741517462817	0.005389916516912968	0.0002637040246361978	-0.13732664726468088	
0.7717491476846452	0.005708117250340369	0.00023127446412127392	-0.17342045741115453	
0.7754241436230086	0.006074172432038258	0.00020000163531724345	-0.202979431180424	
0.7790991395613721	0.006482366134240772	0.000170808758913559	-0.2268222419527272	
0.7827741354997355	0.0069267424520691534	0.00014421961447068967	-0.2458389178167279	
0.7864491314380991	0.007401122770792684	0.00012045320347968129	-0.26088421400765177	
0.7901241273764626	0.007899120484961083	9.951888480476962e-05	-0.2727200010504285	
0.7937991233148259	0.008414156372413177	8.129638662548239e-05	-0.28199291805854576	
0.7974741192531893	0.008939477942537983	6.55957349942594e-05	-0.28923384669663643	
0.8011491151915529	0.009468185946199265	5.2198071682006485e-05	-0.2948688964188294	
0.8048241111299164	0.009993270857478741	4.08808489520807e-05	-0.29923508476055655	
0.8084991070682799	0.01050766153404466	3.143143462347729e-05	-0.302596719246534	
0.8121741030066433	0.011004287467772668	2.3652783704070864e-05	-0.30516043229270257	
0.8158490989450068	0.011476155097533108	1.7364138173218315e-05	-0.3070880216826361	
0.8195240948833703	0.01191643762921419	1.2398996787372e-05	-0.30850692308315353	
0.8231990908217336	0.012318576758032006	8.601965709819335e-06	-0.30951847893250223	
0.8268740867600971	0.012676393681491809	5.825585192621381e-06	-0.3102043084496773	
0.8305490826984606	0.012984205892913034	3.927819741053106e-06	-0.3106311164903145	
0.834224078636824	0.013236945514431508	2.77058211252453e-06	-0.3108542587993575	
0.8378990745751875	0.013430274414686411	2.2194189035086525e-06	-0.31092033867000407	
0.841574070513551	0.013560691097306173	2.1443047139222846e-06	-0.31086906150924526	
0.8452490664519146	0.013625624364290156	2.4213636476535683e-06	-0.3107345273749234	
0.8489240623902778	0.01362350905961331	2.9352541145251688e-06	-0.31054610060163385	
0.8525990583286414	0.01355383977230917	3.581909549638875e-06	-0.3103289611461501	
0.8562740542670048	0.013417199198228511	4.271318103161728e-06	-0.3101044140237127	
0.8599490502053683	0.013215258884361482	4.930042853553208e-06	-0.30989001040306513	
0.8636240461437318	0.01295075125562668	5.503224753333319e-06	-0.30969951561856823	
0.8672990420820953	0.012627413088915027	5.955867309860117e-06	-0.3095427445579207	
0.8709740380204587	0.012249901885084163	6.273268972840902e-06	-0.3094252726608465	
0.874649033958822	0.01182368782721101	6.4605406463654054e-06	-0.3093480202613729	
0.8783240298971855	0.011354925135918447	6.541216425120707e-06	-0.3093066984529735	
0.881999025835549	0.010850307579461106	6.555030947447562e-06	-0.30929109538158667	
0.8856740217739125	0.010316913616616989	6.554992761748114e-06	-0.30928417235475625	
